"mass","coupling"
0.0980508794057997,2.339529777230413e-10
0.09898984896143839,3.0065937807854764e-10
0.09898984896143839,3.0065937807854764e-10
0.10065550809107437,3.75459572722052e-10
0.10065550809107437,3.75459572722052e-10
0.10118698852113499,3.767613814362366e-10
0.10118698852113499,3.767613814362366e-10
0.10221968847602302,4.356180642976732e-10
0.10221968847602302,4.356180642976732e-10
0.10454404321004497,4.6490580306946755e-10
0.10454404321004497,4.6490580306946755e-10
0.10420338574338332,5.295209409663242e-10
0.10420338574338332,5.295209409663242e-10
0.10463338247181843,6.073494605949127e-10
0.10463338247181843,6.073494605949127e-10
0.10785571884571402,7.365606518847703e-10
0.10785571884571402,7.365606518847703e-10
0.11042367606745007,8.44668341593865e-10
0.11042367606745007,8.44668341593865e-10
0.11133722839538253,1.0345731169812049e-9
0.11133722839538253,1.0345731169812049e-9
0.11371410505379197,1.1204653514547982e-9
0.11371410505379197,1.1204653514547982e-9
0.11705381467017718,1.1204653514547982e-9
0.11705381467017718,1.1204653514547982e-9
0.12671762140162304,1.1204653514547982e-9
0.12671762140162304,1.1204653514547982e-9
0.13717925912051582,1.1204653514547982e-9
0.13717925912051582,1.1204653514547982e-9
0.1485045956884777,1.1204653514547982e-9
0.1485045956884777,1.1204653514547982e-9
0.16076493692988633,1.1204653514547982e-9
0.16076493692988633,1.1204653514547982e-9
0.1740374755828221,1.1204653514547982e-9
0.1740374755828221,1.1204653514547982e-9
0.18840577731480837,1.1204653514547982e-9
0.18840577731480837,1.1204653514547982e-9
0.20396030686336153,1.1204653514547982e-9
0.20396030686336153,1.1204653514547982e-9
0.22095828599439216,1.1187451085763266e-9
0.22095828599439216,1.1187451085763266e-9
0.23902786820186792,1.1126673193449653e-9
0.23902786820186792,1.1126673193449653e-9
0.2587616900191323,1.1118905073178739e-9
0.2587616900191323,1.1118905073178739e-9
0.2801247098309448,1.1204653514547982e-9
0.2801247098309448,1.1204653514547982e-9
0.30325143204957833,1.1118905073178739e-9
0.30325143204957833,1.1118905073178739e-9
0.3301340058199723,1.1118905073178739e-9
0.3301340058199723,1.1118905073178739e-9
0.35539044065340775,1.1405985977636936e-9
0.35539044065340775,1.1405985977636936e-9
0.3847310011670065,1.1118905073178739e-9
0.3847310011670065,1.1118905073178739e-9
0.41649387920177827,1.1118905073178739e-9
0.41649387920177827,1.1118905073178739e-9
0.4508790580597006,1.1118905073178739e-9
0.4508790580597006,1.1118905073178739e-9
0.4881030313972861,1.1118905073178739e-9
0.4881030313972861,1.1118905073178739e-9
0.5284001662984179,1.1118905073178739e-9
0.5284001662984179,1.1118905073178739e-9
0.5720241788806644,1.1126673193449653e-9
0.5720241788806644,1.1126673193449653e-9
0.6192497317256768,1.1204653514547982e-9
0.6192497317256768,1.1204653514547982e-9
0.6703741631913119,1.1204653514547982e-9
0.6703741631913119,1.1204653514547982e-9
0.7257193594934545,1.1204653514547982e-9
0.7257193594934545,1.1204653514547982e-9
0.7856337813444181,1.1235998454216797e-9
0.7856337813444181,1.1235998454216797e-9
0.8504946579079032,1.1291063243620325e-9
0.8504946579079032,1.1291063243620325e-9
0.9207103618839579,1.1291063243620325e-9
0.9207103618839579,1.1291063243620325e-9
0.9967229806777735,1.1346397891643356e-9
0.9967229806777735,1.1346397891643356e-9
1.0790110998407512,1.141794109514981e-9
1.0790110998407512,1.141794109514981e-9
1.168092816308745,1.146588700347506e-9
1.168092816308745,1.146588700347506e-9
1.2645290004092362,1.146588700347506e-9
1.2645290004092362,1.146588700347506e-9
1.368926827175465,1.1362257541859862e-9
1.368926827175465,1.1362257541859862e-9
1.4819435992011403,1.1165595277557416e-9
1.4819435992011403,1.1165595277557416e-9
1.592763030913904,1.0921368695643492e-9
1.592763030913904,1.0921368695643492e-9
1.7367389996611318,1.0318293205780245e-9
1.7367389996611318,1.0318293205780245e-9
1.8801218538037388,9.449108134214559e-10
1.8801218538037388,9.449108134214559e-10
2.0353422050406653,8.408878318727293e-10
2.0353422050406653,8.408878318727293e-10
2.2033773413349382,7.374215235207493e-10
2.2033773413349382,7.374215235207493e-10
2.385285234239629,6.544098369184722e-10
2.385285234239629,6.544098369184722e-10
2.582211200027365,6.102655161887886e-10
2.582211200027365,6.102655161887886e-10
2.795395110753831,6.145425089682368e-10
2.795395110753831,6.145425089682368e-10
3.0261792006570216,6.73889724268391e-10
3.0261792006570216,6.73889724268391e-10
3.276016517042419,7.343379116943745e-10
3.276016517042419,7.343379116943745e-10
3.470576933396587,6.59456612942111e-10
3.470576933396587,6.59456612942111e-10
3.572148234390524,5.484189055349383e-10
3.572148234390524,5.484189055349383e-10
3.650272781559681,4.549110346665307e-10
3.650272781559681,4.549110346665307e-10
3.7390833867194795,3.841717970205303e-10
3.7390833867194795,3.841717970205303e-10
3.867060025608044,3.074465510078202e-10
3.867060025608044,3.074465510078202e-10
4.132328567643826,2.451640465551113e-10
4.132328567643826,2.451640465551113e-10
4.412155812124316,2.1814404807301947e-10
4.412155812124316,2.1814404807301947e-10
4.6814195674156975,2.316746789623122e-10
4.6814195674156975,2.316746789623122e-10
4.85330194900377,2.7258328539653545e-10
4.85330194900377,2.7258328539653545e-10
4.977360923759656,3.3713708728428467e-10
4.977360923759656,3.3713708728428467e-10
5.086218127534832,3.9413666873029916e-10
5.086218127534832,3.9413666873029916e-10
5.1974560891042,4.703100321747627e-10
5.1974560891042,4.703100321747627e-10
5.388285199362261,7.689788632514218e-10
5.388285199362261,7.689788632514218e-10
5.388285199362261,9.036057509647734e-10
5.388285199362261,9.036057509647734e-10
5.407749293380498,1.0416037820298606e-9
5.407749293380498,1.0416037820298606e-9
5.427283697514467,1.2940650120888374e-9
5.427283697514467,1.2940650120888374e-9
5.474454654453256,1.6991502563352952e-9
5.474454654453256,1.6991502563352952e-9
5.545980922099048,2.5819917392474906e-9
5.545980922099048,2.5819917392474906e-9
5.675454007395836,2.2927237326209873e-9
5.675454007395836,2.2927237326209873e-9
6.047303441780274,2.0490135615656662e-9
6.047303441780274,2.0490135615656662e-9
6.224286257569795,1.6326100284504783e-9
6.224286257569795,1.6326100284504783e-9
6.31471066245293,1.3421592128059098e-9
6.31471066245293,1.3421592128059098e-9
6.406448723659062,1.089343716057444e-9
6.406448723659062,1.089343716057444e-9
6.499519525559695,9.012947681177481e-10
6.499519525559695,9.012947681177481e-10
6.770628183267413,6.765619824593212e-10
6.770628183267413,6.765619824593212e-10
7.347242741107946,7.820859822366201e-10
7.347242741107946,7.820859822366201e-10
7.727660476072663,6.787311173440827e-10
7.727660476072663,6.787311173440827e-10
7.7649023535523165,8.617959835421381e-10
7.7649023535523165,8.617959835421381e-10
7.95382129695552,8.695547715750075e-10
7.95382129695552,8.695547715750075e-10
7.9251931344558795,1.0376104662238485e-9
7.9251931344558795,1.0376104662238485e-9
7.9251931344558795,1.2286702314732573e-9
7.9251931344558795,1.2286702314732573e-9
7.9251931344558795,1.4549106691285708e-9
7.9251931344558795,1.4549106691285708e-9
7.9251931344558795,1.722809750673298e-9
7.9251931344558795,1.722809750673298e-9
7.9251931344558795,2.0400382648872457e-9
7.9251931344558795,2.0400382648872457e-9
7.9251931344558795,2.41567945652599e-9
7.9251931344558795,2.41567945652599e-9
7.9251931344558795,2.8604891080335968e-9
7.9251931344558795,2.8604891080335968e-9
7.9251931344558795,3.387203511241521e-9
7.9251931344558795,3.387203511241521e-9
7.9251931344558795,4.010904147247022e-9
7.9251931344558795,4.010904147247022e-9
7.9251931344558795,4.749449516396733e-9
7.9251931344558795,4.749449516396733e-9
7.9251931344558795,5.6239864830187665e-9
7.9251931344558795,5.6239864830187665e-9
7.9251931344558795,6.659555776302648e-9
7.9251931344558795,6.659555776302648e-9
7.9251931344558795,7.885808984711625e-9
7.9251931344558795,7.885808984711625e-9
7.9251931344558795,9.337857573720022e-9
7.9251931344558795,9.337857573720022e-9
7.9251931344558795,1.1057278236909893e-8
7.9251931344558795,1.1057278236909893e-8
7.934724387907928,1.3501899325301703e-8
7.934724387907928,1.3501899325301703e-8
7.896668013206179,1.6914643752936876e-8
7.896668013206179,1.6914643752936876e-8
7.896668013206179,2.002921128084027e-8
7.896668013206179,2.002921128084027e-8
7.896668013206179,2.3717277785580583e-8
7.896668013206179,2.3717277785580583e-8
7.896668013206179,2.9221596832450377e-8
7.896668013206179,2.9221596832450377e-8
7.9251931344558795,3.609567644892634e-8
7.9251931344558795,3.609567644892634e-8
7.9251931344558795,4.2742131639329674e-8
7.9251931344558795,4.2742131639329674e-8
7.9251931344558795,5.061242776981214e-8
7.9251931344558795,5.061242776981214e-8
7.965301496836557,6.123505424842066e-8
7.965301496836557,6.123505424842066e-8
7.982552872920824,1.0911841392479998e-7
7.982552872920824,1.0911841392479998e-7
7.982552872920824,1.1020959806404806e-7
7.982552872920824,1.1020959806404806e-7
7.982552872920824,2.455321957102348e-7
7.982552872920824,2.455321957102348e-7
7.982552872920824,5.470127846329144e-7
7.982552872920824,5.470127846329144e-7
7.982552872920824,1.218671081754928e-6
7.982552872920824,1.218671081754928e-6
7.982552872920824,2.715035639436434e-6
7.982552872920824,2.715035639436434e-6
7.982552872920824,6.048735080178402e-6
7.982552872920824,6.048735080178402e-6
7.982552872920824,0.000013475770092570632
7.982552872920824,0.000013475770092570632
7.982552872920824,0.000030022207483166012
7.982552872920824,0.000030022207483166012
7.982552872920824,0.00006688544966043814
7.982552872920824,0.00006688544966043814
7.982552872920824,0.00014901180663638608
7.982552872920824,0.00014901180663638608
7.982552872920824,0.0003319783096288793
7.982552872920824,0.0003319783096288793
7.982552872920824,0.0007396031264353297
7.982552872920824,0.0007396031264353297
7.982552872920824,0.0016477365200287435
7.982552872920824,0.0016477365200287435
7.982552872920824,0.003670935860590679
7.982552872920824,0.003670935860590679
7.982552872920824,0.008178352502823423
7.982552872920824,0.008178352502823423
7.982552872920824,0.018220271941682957
7.982552872920824,0.018220271941682957
7.982552872920824,0.0405923209490261
7.982552872920824,0.0405923209490261
7.982552872920824,0.09043424408277775
7.982552872920824,0.09043424408277775
7.982552872920824,0.20147536064994673
7.982552872920824,0.20147536064994673
7.982552872920824,0.44886006800554973
7.982552872920824,0.44886006800554973
7.982552872920824,1.
7.982552872920824,1.
7.9027273441916215,1.
7.9027273441916215,1.
5.088787521156186,1.
5.088787521156186,1.
3.276812840380719,1.
3.276812840380719,1.
2.110031583406405,1.
2.110031583406405,1.
1.3587084462398717,1.
1.3587084462398717,1.
1.,1.
0.99,1.
0.99,1.
0.8749104309155726,1.
0.8749104309155726,1.
0.664333981071425,1.
0.664333981071425,1.
0.5633793359003919,1.
0.5633793359003919,1.
0.4457976145517252,1.
0.4457976145517252,1.
0.4254841975694665,1.
0.4254841975694665,1.
0.42122935559377206,1.
0.42122935559377206,1.
0.36277573669732044,1.
0.36277573669732044,1.
0.31206653368635706,1.
0.31206653368635706,1.
0.2991500040679718,1.
0.2991500040679718,1.
0.233601459531615,1.
0.233601459531615,1.
0.23119357697599668,1.
0.23119357697599668,1.
0.20074294256566533,1.
0.20074294256566533,1.
0.1712790839939171,1.
0.1712790839939171,1.
0.1504225238217366,1.
0.1504225238217366,1.
0.13470743253196038,1.
0.13470743253196038,1.
0.13310411773840328,1.
0.13310411773840328,1.
0.13177307656101916,1.
0.13177307656101916,1.
0.1268916074465214,1.
0.1268916074465214,1.
0.10343322471076559,1.
0.10343322471076559,1.
0.0968612769726238,1.
0.0968612769726238,1.
0.09400727552311017,1.
0.09400727552311017,1.
0.09039467165037135,1.
0.09039467165037135,1.
0.08118829925864011,1.
0.08118829925864011,1.
0.0696450145846128,1.
0.0696450145846128,1.
0.06372749138337985,1.
0.06372749138337985,1.
0.06237168968050245,1.
0.06237168968050245,1.
0.06065884049003574,1.
0.06065884049003574,1.
0.05159630496150831,1.
0.05159630496150831,1.
0.05002190211031623,1.
0.05002190211031623,1.
0.040704776757496945,1.
0.040704776757496945,1.
0.04016287824390753,1.
0.04016287824390753,1.
0.039263913209466615,1.
0.039263913209466615,1.
0.03822497132866053,1.
0.03822497132866053,1.
0.030819597325999818,1.
0.030819597325999818,1.
0.02831885799122553,1.
0.02831885799122553,1.
0.02731471352720358,1.
0.02731471352720358,1.
0.0258620024100323,1.
0.0258620024100323,1.
0.02419136305312952,1.
0.02419136305312952,1.
0.020979942954879396,1.
0.020979942954879396,1.
0.01898863376370655,1.
0.01898863376370655,1.
0.01832938624177035,1.
0.01832938624177035,1.
0.0166532678408818,1.
0.0166532678408818,1.
0.015542929256765035,1.
0.015542929256765035,1.
0.014904832415614194,1.
0.014904832415614194,1.
0.012299832457162724,1.
0.012299832457162724,1.
0.011699316133114961,1.
0.011699316133114961,1.
0.011514933591590937,1.
0.011514933591590937,1.
0.010723505681546392,1.
0.010723505681546392,1.
0.009183196037761273,1.
0.009183196037761273,1.
0.008530804807017837,1.
0.008530804807017837,1.
0.008253734002806499,1.
0.008253734002806499,1.
0.007208206745457105,1.
0.007208206745457105,1.
0.006905165712873615,1.
0.006905165712873615,1.
0.00632002174190428,1.
0.00632002174190428,1.
0.005657969651480941,1.
0.005657969651480941,1.
0.005538622190695989,1.
0.005538622190695989,1.
0.004682169586776161,1.
0.004682169586776161,1.
0.00444642964140897,1.
0.00444642964140897,1.
0.004441135182097121,1.
0.004441135182097121,1.
0.0037166615450460617,1.
0.0037166615450460617,1.
0.003485999911734816,1.
0.003485999911734816,1.
0.0034687716173467083,1.
0.0034687716173467083,1.
0.0028631806068232105,1.
0.0028631806068232105,1.
0.0027362813529303183,1.
0.0027362813529303183,1.
0.0025698292875365077,1.
0.0025698292875365077,1.
0.002494045010621737,1.
0.002494045010621737,1.
0.0021478014434797117,1.
0.0021478014434797117,1.
0.0019038504968314593,1.
0.0019038504968314593,1.
0.0018436822008704556,1.
0.0018436822008704556,1.
0.0016858833013181742,1.
0.0016858833013181742,1.
0.0016736150008865283,1.
0.0016736150008865283,1.
0.0014104620613768694,1.
0.0014104620613768694,1.
0.0013233078477956225,1.
0.0013233078477956225,1.
0.0011871986174068181,1.
0.0011871986174068181,1.
0.001175444175650314,1.
0.001175444175650314,1.
0.0011230700164846503,1.
0.0011230700164846503,1.
0.0010449366848365531,1.
0.0010449366848365531,1.
0.0010387098909327116,1.
0.0010387098909327116,1.
0.0010345907770658936,1.
0.0010345907770658936,1.
0.0007536298738113105,1.
0.0007536298738113105,1.
0.0005057191255792158,1.
0.0005057191255792158,1.
0.0003393600000000001,1.
0.0003393600000000001,1.
0.0003359999999999998,1.
0.0003359999999999998,1.
0.0003359999999999998,0.5239190445415922
0.0003359999999999998,0.5239190445415922
0.0003359999999999998,0.27449116523337375
0.0003359999999999998,0.27449116523337375
0.0003359999999999998,0.14381114902417722
0.0003359999999999998,0.14381114902417722
0.0003359999999999998,0.0753453997911753
0.0003359999999999998,0.0753453997911753
0.0003359999999999998,0.03947488986919678
0.0003359999999999998,0.03947488986919678
0.0003359999999999998,0.020681646583654116
0.0003359999999999998,0.020681646583654116
0.0003359999999999998,0.010835508517654946
0.0003359999999999998,0.010835508517654946
0.0003359999999999998,0.005676929269692054
0.0003359999999999998,0.005676929269692054
0.0003359999999999998,0.0029742513589072527
0.0003359999999999998,0.0029742513589072527
0.0003359999999999998,0.0015582669301852177
0.0003359999999999998,0.0015582669301852177
0.0003359999999999998,0.0008164057212033972
0.0003359999999999998,0.0008164057212033972
0.0003359999999999998,0.0004277305054111727
0.0003359999999999998,0.0004277305054111727
0.0003359999999999998,0.00022409615771631336
0.0003359999999999998,0.00022409615771631336
0.0003359999999999998,0.00011740824483617267
0.0003359999999999998,0.00011740824483617267
0.0003359999999999998,0.00006151241545587282
0.0003359999999999998,0.00006151241545587282
0.0003359999999999998,0.00003222752593308631
0.0003359999999999998,0.00003222752593308631
0.0003359999999999998,0.000016884614594801907
0.0003359999999999998,0.000016884614594801907
0.0003359999999999998,8.846171145961623e-6
0.0003359999999999998,8.846171145961623e-6
0.0003359999999999998,4.6346775346436086e-6
0.0003359999999999998,4.6346775346436086e-6
0.0003359999999999998,2.428195825708862e-6
0.0003359999999999998,2.428195825708862e-6
0.0003359999999999998,1.2721780369652629e-6
0.0003359999999999998,1.2721780369652629e-6
0.0003359999999999998,6.66518301613639e-7
0.0003359999999999998,6.66518301613639e-7
0.0003359999999999998,3.492016317509014e-7
0.0003359999999999998,3.492016317509014e-7
0.0003359999999999998,1.8295338525929722e-7
0.0003359999999999998,1.8295338525929722e-7
0.0003359999999999998,9.58527628007005e-8
0.0003359999999999998,9.58527628007005e-8
0.0003359999999999998,5.0219087903214796e-8
0.0003359999999999998,5.0219087903214796e-8
0.0003359999999999998,2.6310736552002486e-8
0.0003359999999999998,2.6310736552002486e-8
0.0003359999999999998,1.3784695955510668e-8
0.0003359999999999998,1.3784695955510668e-8
0.0003359999999999998,7.222064734307462e-9
0.0003359999999999998,7.222064734307462e-9
0.0003359999999999998,3.783777255215901e-9
0.0003359999999999998,3.783777255215901e-9
0.0003414290906059286,3.768138850207301e-9
0.0003414290906059286,3.768138850207301e-9
0.0003469459044999737,3.787232734534326e-9
0.0003469459044999737,3.787232734534326e-9
0.00035255185911570636,3.803791345060208e-9
0.00035255185911570636,3.803791345060208e-9
0.00035824839478959834,3.818005874573753e-9
0.00035824839478959834,3.818005874573753e-9
0.0003640369751310899,3.830062088437027e-9
0.0003640369751310899,3.830062088437027e-9
0.0003699190873986337,3.840139478750908e-9
0.0003699190873986337,3.840139478750908e-9
0.0003758962428818169,3.848410596751013e-9
0.0003758962428818169,3.848410596751013e-9
0.00038196997728965465,3.855040544735979e-9
0.00038196997728965465,3.855040544735979e-9
0.0003881418511451602,3.86018660846426e-9
0.0003881418511451602,3.86018660846426e-9
0.00039441345018629084,3.863998014865033e-9
0.00039441345018629084,3.863998014865033e-9
0.0004007863857733689,3.866615796681498e-9
0.0004007863857733689,3.866615796681498e-9
0.00040726229530308947,3.8681727499606146e-9
0.00040726229530308947,3.8681727499606146e-9
0.0004138428426292167,3.868793471100221e-9
0.0004138428426292167,3.868793471100221e-9
0.0004205297184900769,3.8685944606327975e-9
0.0004205297184900769,3.8685944606327975e-9
0.0004273246409429585,3.867684280306359e-9
0.0004273246409429585,3.867684280306359e-9
0.0004342293558055331,3.866163757251546e-9
0.0004342293558055331,3.866163757251546e-9
0.00044124563710440867,3.864126221212307e-9
0.00044124563710440867,3.864126221212307e-9
0.00044837528753092793,3.8616577719156625e-9
0.00044837528753092793,3.8616577719156625e-9
0.00045562013890433465,3.858837565441747e-9
0.00045562013890433465,3.858837565441747e-9
0.0004629820526424216,3.855738115654332e-9
0.0004629820526424216,3.855738115654332e-9
0.00047046292023978606,3.852425605424342e-9
0.00047046292023978606,3.852425605424342e-9
0.000478064663753808,3.848960202511726e-9
0.000478064663753808,3.848960202511726e-9
0.00048578923629848656,3.845396376875017e-9
0.00048578923629848656,3.845396376875017e-9
0.0004936386225462523,3.84178321603771e-9
0.0004936386225462523,3.84178321603771e-9
0.0005016148392378872,3.838164736168916e-9
0.0005016148392378872,3.838164736168916e-9
0.0005097199357006866,3.834580187137771e-9
0.0005097199357006866,3.834580187137771e-9
0.0005179559943749934,3.831064348902486e-9
0.0005179559943749934,3.831064348902486e-9
0.0005263251313492363,3.827647819175482e-9
0.0005263251313492363,3.827647819175482e-9
0.0005348294969036179,3.824357290928579e-9
0.0005348294969036179,3.824357290928579e-9
0.0005434712760625844,3.821215818560403e-9
0.0005434712760625844,3.821215818560403e-9
0.0005522526891562253,3.818243073098308e-9
0.0005522526891562253,3.818243073098308e-9
0.0005611759923907396,3.815455586509378e-9
0.0005611759923907396,3.815455586509378e-9
0.000570243478428123,3.812866982895961e-9
0.000570243478428123,3.812866982895961e-9
0.0005794574769752245,3.8104882000802605e-9
0.0005794574769752245,3.8104882000802605e-9
0.0005888203553823115,3.808327698333905e-9
0.0005888203553823115,3.808327698333905e-9
0.0005983345192513156,3.806391658717582e-9
0.0005983345192513156,3.806391658717582e-9
0.0006080024130539051,3.804684170689126e-9
0.0006080024130539051,3.804684170689126e-9
0.0006178265207595384,3.803207408939567e-9
0.0006178265207595384,3.803207408939567e-9
0.0006278093664736726,3.8019618003392956e-9
0.0006278093664736726,3.8019618003392956e-9
0.000637953515086279,3.800946181902724e-9
0.000637953515086279,3.800946181902724e-9
0.0006482615729308445,3.800157948301743e-9
0.0006482615729308445,3.800157948301743e-9
0.000658736188454009,3.799593191815671e-9
0.000658736188454009,3.799593191815671e-9
0.0006693800528960346,3.799246833924485e-9
0.0006693800528960346,3.799246833924485e-9
0.000680195900982266,3.799112748279327e-9
0.000680195900982266,3.799112748279327e-9
0.0006911865116257598,3.799183877129517e-9
0.0006911865116257598,3.799183877129517e-9
0.0007023547086412713,3.79945233995652e-9
0.0007023547086412713,3.79945233995652e-9
0.0007137033614707765,3.79990953648229e-9
0.0007137033614707765,3.79990953648229e-9
0.0007252353859207187,3.800546242494493e-9
0.0007252353859207187,3.800546242494493e-9
0.0007369537449111624,3.801352700175437e-9
0.0007369537449111624,3.801352700175437e-9
0.0007488614492370577,3.8023187029090095e-9
0.0007488614492370577,3.8023187029090095e-9
0.0007609615583418038,3.8034336747647795e-9
0.0007609615583418038,3.8034336747647795e-9
0.0007732571811033103,3.804686745282729e-9
0.0007732571811033103,3.804686745282729e-9
0.0007857514766327589,3.806066819099868e-9
0.0007857514766327589,3.806066819099868e-9
0.000798447655086274,3.80756264102259e-9
0.000798447655086274,3.80756264102259e-9
0.0008113489784897101,3.809162858058003e-9
0.0008113489784897101,3.809162858058003e-9
0.0008244587615767582,3.81085607601004e-9
0.0008244587615767582,3.81085607601004e-9
0.0008377803726406022,3.812630913202609e-9
0.0008377803726406022,3.812630913202609e-9
0.0008513172343993353,3.814476049835458e-9
0.0008513172343993353,3.814476049835458e-9
0.0008650728248753546,3.816380274890632e-9
0.0008650728248753546,3.816380274890632e-9
0.0008790506782889701,3.818332528926375e-9
0.0008790506782889701,3.818332528926375e-9
0.0008932543859664498,3.820321943780315e-9
0.0008932543859664498,3.820321943780315e-9
0.000907687597262744,3.822337879484088e-9
0.000907687597262744,3.822337879484088e-9
0.0009223540204991041,3.824369958391863e-9
0.0009223540204991041,3.824369958391863e-9
0.0009372574239158653,3.8264080958585325e-9
0.0009372574239158653,3.8264080958585325e-9
0.0009524016366406223,3.82844252904025e-9
0.0009524016366406223,3.82844252904025e-9
0.0009677905496720406,3.83046384240913e-9
0.0009677905496720406,3.83046384240913e-9
0.0009834281168795728,3.832462990854451e-9
0.0009834281168795728,3.832462990854451e-9
0.0009993183560193244,3.834431320933097e-9
0.0009993183560193244,3.834431320933097e-9
0.0010154653497663375,3.836360588861535e-9
0.0010154653497663375,3.836360588861535e-9
0.0010284256345868426,3.83784987097013e-9
0.0010284256345868426,3.83784987097013e-9
0.0010284256345868426,3.738170212997527e-9
0.0010284256345868426,3.738170212997527e-9
0.0010284256345868426,1.6078774532503823e-9
0.0010284256345868426,1.6078774532503823e-9
0.0010284256345868426,6.915869950710125e-10
0.0010284256345868426,6.915869950710125e-10
0.0010284256345868426,2.9746829945557535e-10
0.0010284256345868426,2.9746829945557535e-10
0.0010284256345868426,1.2794831281045987e-10
0.0010284256345868426,1.2794831281045987e-10
0.0010284256345868426,5.503366503592137e-11
0.0010284256345868426,5.503366503592137e-11
0.0010284256345868426,2.3671310865760837e-11
0.0010284256345868426,2.3671310865760837e-11
0.0010284256345868426,1.0181603528272121e-11
0.0010284256345868426,1.0181603528272121e-11
0.0010345907770658936,1.0244729234417857e-11
0.0010345907770658936,1.0244729234417857e-11
0.0010345907770658936,5.778450927185928e-12
0.0010345907770658936,5.778450927185928e-12
0.0010345907770658936,2.135863074045105e-12
0.0010345907770658936,2.135863074045105e-12
0.0010345907770658936,7.894695530954345e-13
0.0010345907770658936,7.894695530954345e-13
0.0010345907770658936,2.9180811393696456e-13
0.0010345907770658936,2.9180811393696456e-13
0.0010345907770658936,1.0785973319119839e-13
0.0010345907770658936,1.0785973319119839e-13
0.0011019112874516076,1.2022193158939201e-13
0.0011019112874516076,1.2022193158939201e-13
0.001184777440431519,1.2858775548847387e-13
0.001184777440431519,1.2858775548847387e-13
0.0012705468333213663,1.4426768043439396e-13
0.0012705468333213663,1.4426768043439396e-13
0.0013625253153664015,1.607176007755434e-13
0.0013625253153664015,1.607176007755434e-13
0.0014611623801078296,1.7715167737774182e-13
0.0014611623801078296,1.7715167737774182e-13
0.0015669400611967672,1.9440399966743053e-13
0.0015669400611967672,1.9440399966743053e-13
0.00168037528806493,2.1542361312979236e-13
0.00168037528806493,2.1542361312979236e-13
0.001802022412128957,2.3977467820917645e-13
0.001802022412128957,2.3977467820917645e-13
0.0019324759158738543,2.6546486331098237e-13
0.0019324759158738543,2.6546486331098237e-13
0.0020723733180546267,2.926098049837834e-13
0.0020723733180546267,2.926098049837834e-13
0.002222398289213706,3.2439128245122445e-13
0.002222398289213706,3.2439128245122445e-13
0.0023832839927394856,3.6208389015245705e-13
0.0023832839927394856,3.6208389015245705e-13
0.0025558166677935546,4.053383407661688e-13
0.0025558166677935546,4.053383407661688e-13
0.002740839471616157,4.4888669081453884e-13
0.002740839471616157,4.4888669081453884e-13
0.002939256599987065,4.994069133537988e-13
0.002939256599987065,4.994069133537988e-13
0.003152037705978203,5.51546350041254e-13
0.003152037705978203,5.51546350041254e-13
0.0033802226385923812,6.244027475935369e-13
0.0033802226385923812,6.244027475935369e-13
0.0036249265244454034,7.134438419321645e-13
0.0036249265244454034,7.134438419321645e-13
0.003887345217325606,8.147358607678184e-13
0.003887345217325606,8.147358607678184e-13
0.0041687611422623954,9.378498066022648e-13
0.0041687611422623954,9.378498066022648e-13
0.004470549562663453,1.0615648481590307e-12
0.004470549562663453,1.0615648481590307e-12
0.004794185301147778,1.187853336439514e-12
0.004794185301147778,1.187853336439514e-12
0.005146697293063932,1.3619404332428071e-12
0.005146697293063932,1.3619404332428071e-12
0.005513439584899755,1.5697937761979143e-12
0.005513439584899755,1.5697937761979143e-12
0.005916748741767802,1.7189554786906985e-12
0.005916748741767802,1.7189554786906985e-12
0.006329100778022983,1.917769807989143e-12
0.006329100778022983,1.917769807989143e-12
0.006807720581031326,2.174431787335944e-12
0.006807720581031326,2.174431787335944e-12
0.0072705060090505775,2.3595544271245905e-12
0.0072705060090505775,2.3595544271245905e-12
0.0078031923916890705,2.6072213757751085e-12
0.0078031923916890705,2.6072213757751085e-12
0.008385829575122315,2.9427446954165356e-12
0.008385829575122315,2.9427446954165356e-12
0.008992903517443519,3.353809280749594e-12
0.008992903517443519,3.353809280749594e-12
0.009643925261010121,3.930126158408798e-12
0.009643925261010121,3.930126158408798e-12
0.010342076311565791,4.501769306011359e-12
0.010342076311565791,4.501769306011359e-12
0.011090768493061419,5.090461768056341e-12
0.011090768493061419,5.090461768056341e-12
0.011893660621042244,5.930685211372721e-12
0.011893660621042244,5.930685211372721e-12
0.012754676383068538,6.662709483866054e-12
0.012754676383068538,6.662709483866054e-12
0.013678023513550571,7.465756320717466e-12
0.013678023513550571,7.465756320717466e-12
0.014647517914437547,8.248442225679192e-12
0.014647517914437547,8.248442225679192e-12
0.015547915308556403,9.309087415318522e-12
0.015547915308556403,9.309087415318522e-12
0.01641765044878532,1.0484020445962079e-11
0.01641765044878532,1.0484020445962079e-11
0.017930339665403586,1.3279054563714999e-11
0.017930339665403586,1.3279054563714999e-11
0.019647701309758275,1.670731458831366e-11
0.019647701309758275,1.670731458831366e-11
0.021070054028092682,1.909624900563391e-11
0.021070054028092682,1.909624900563391e-11
0.022595374886234292,2.2098907876024822e-11
0.022595374886234292,2.2098907876024822e-11
0.024231118039315436,2.5732632382819988e-11
0.024231118039315436,2.5732632382819988e-11
0.02598527726986035,3.0203484009768885e-11
0.02598527726986035,3.0203484009768885e-11
0.02876593437868744,3.8526682420351796e-11
0.02876593437868744,3.8526682420351796e-11
0.030848381801614942,4.4387680786471603e-11
0.030848381801614942,4.4387680786471603e-11
0.03308158348867195,5.159493835229294e-11
0.03308158348867195,5.159493835229294e-11
0.035476452967807874,5.997244317365281e-11
0.035476452967807874,5.997244317365281e-11
0.0380446938281554,6.958692164847111e-11
0.0380446938281554,6.958692164847111e-11
0.040798856914796046,8.067131341408234e-11
0.040798856914796046,8.067131341408234e-11
0.0436690821300507,9.259884545956055e-11
0.0436690821300507,9.259884545956055e-11
0.04691976187880017,1.0813069463286783e-10
0.04691976187880017,1.0813069463286783e-10
0.05031641626598637,1.2714245119243353e-10
0.05031641626598637,1.2714245119243353e-10
0.05395896407982284,1.492324972596775e-10
0.05395896407982284,1.492324972596775e-10
0.05786520624156246,1.7132736150540838e-10
0.05786520624156246,1.7132736150540838e-10
0.06205423233154018,1.86355773027428e-10
0.06205423233154018,1.86355773027428e-10
0.06654651387885199,1.7703078542670752e-10
0.06654651387885199,1.7703078542670752e-10
0.06979449216745666,1.4274085658285485e-10
0.06979449216745666,1.4274085658285485e-10
0.07113764576866262,1.0965665998754942e-10
0.07113764576866262,1.0965665998754942e-10
0.07227666459208629,8.355996376821665e-11
0.07227666459208629,8.355996376821665e-11
0.07296881124131933,6.204207553546184e-11
0.07296881124131933,6.204207553546184e-11
0.07390199498721994,4.47756803324696e-11
0.07390199498721994,4.47756803324696e-11
0.07648605380366282,3.308630041847729e-11
0.07648605380366282,3.308630041847729e-11
0.07815185376270005,2.397362982444958e-11
0.07815185376270005,2.397362982444958e-11
0.08207048791517095,2.8334633553452114e-11
0.08207048791517095,2.8334633553452114e-11
0.0843890549045446,3.781808063437514e-11
0.0843890549045446,3.781808063437514e-11
0.08852165079821404,4.744812992049357e-11
0.08852165079821404,4.744812992049357e-11
0.08913736846910558,6.275079005323517e-11
0.08913736846910558,6.275079005323517e-11
0.09085276425096832,7.991330120994854e-11
0.09085276425096832,7.991330120994854e-11
0.09230745125281892,1.0005058339277555e-10
0.09230745125281892,1.0005058339277555e-10
0.09402409283685435,1.2522159738847547e-10
0.09402409283685435,1.2522159738847547e-10
0.0953476365514515,1.5726016165693468e-10
0.0953476365514515,1.5726016165693468e-10
0.09696666594381481,2.0118321465644938e-10
0.09696666594381481,2.0118321465644938e-10
0.0980508794057997,2.339529777230413e-10
