"mass","coupling"
0.0001,7.150639e19
0.00010092619999999999,7.305772e19
0.00010186099999999999,7.464447e19
0.0001028045,7.626747e19
0.0001037567,7.792763e19
0.0001047177,7.962582e19
0.00010568760000000001,8.136299e19
0.0001066665,8.314006e19
0.0001076545,8.495803e19
0.0001086516,8.681787e19
0.0001096579,8.872062e19
0.0001106736,9.066732e19
0.0001116987,9.265904e19
0.0001127333,9.46969e19
0.0001137774,9.678202e19
0.0001148312,9.891556e19
0.00011589480000000001,1.010987e20
0.0001169683,1.033327e20
0.0001180517,1.056188e20
0.0001191451,1.079583e20
0.0001202486,1.103525e20
0.0001213624,1.128027e20
0.0001224865,1.153104e20
0.000123621,1.17877e20
0.000124766,1.205039e20
0.0001259216,1.231927e20
0.0001270879,1.259449e20
0.000128265,1.28762e20
0.00012945300000000002,1.316458e20
0.00013065199999999998,1.345979e20
0.0001318621,1.376199e20
0.0001330835,1.407138e20
0.0001343161,1.438812e20
0.0001355602,1.47124e20
0.00013681579999999999,1.504441e20
0.00013808300000000003,1.538436e20
0.00013936190000000002,1.573243e20
0.0001406527,1.608884e20
0.0001419555,1.64538e20
0.0001432703,1.682753e20
0.00014459730000000002,1.721024e20
0.0001459366,1.760218e20
0.00014728830000000002,1.800357e20
0.0001486525,1.841466e20
0.0001500293,1.88357e20
0.0001514189,1.926693e20
0.0001528214,1.970864e20
0.00015423690000000001,2.016107e20
0.0001556654,2.062452e20
0.0001571072,2.109927e20
0.0001585624,2.15856e20
0.000160031,2.208382e20
0.0001615133,2.259424e20
0.0001630092,2.311718e20
0.0001645191,2.365296e20
0.0001660429,2.420191e20
0.0001675808,2.476439e20
0.00016913300000000002,2.534074e20
0.0001706995,2.593132e20
0.0001722805,2.653652e20
0.00017387620000000001,2.715672e20
0.0001754867,2.77923e20
0.0001771121,2.844369e20
0.00017875260000000003,2.911128e20
0.0001804082,2.979552e20
0.0001820792,3.049685e20
0.0001837656,3.12157e20
0.00018546770000000003,3.195256e20
0.0001871855,3.270791e20
0.0001889193,3.348222e20
0.0001906691,3.427602e20
0.0001924351,3.508982e20
0.00019421749999999998,3.592415e20
0.0001960163,3.677957e20
0.00019783190000000002,3.765664e20
0.0001996642,3.855595e20
0.0002015136,3.947809e20
0.00020338000000000002,4.042368e20
0.0002052638,4.139336e20
0.00020716499999999999,4.238777e20
0.0002090838,4.340758e20
0.0002110203,4.445349e20
0.0002129749,4.55262e20
0.0002149475,4.662645e20
0.00021693840000000002,4.775497e20
0.0002189477,4.891256e20
0.0002209756,5.009999e20
0.00022302230000000001,5.131808e20
0.00022508800000000002,5.256769e20
0.00022717280000000001,5.384967e20
0.0002292769,5.516491e20
0.00023140050000000002,5.651433e20
0.0002335438,5.789887e20
0.0002357069,5.93195e20
0.0002378901,6.077722e20
0.0002400935,6.227307e20
0.00024231730000000003,6.380808e20
0.0002445617,6.538336e20
0.0002468268,6.700003e20
0.000249113,6.865923e20
0.00025142029999999997,7.036216e20
0.000253749,7.211004e20
0.00025609929999999997,7.390412e20
0.0002584714,7.574571e20
0.0002608654,7.763613e20
0.0002632815,7.957676e20
0.00026572010000000003,8.156901e20
0.00026818130000000003,8.361433e20
0.0002706652,8.571424e20
0.0002731722,8.787026e20
0.0002757023,9.008399e20
0.0002782559,9.235707e20
0.0002808332,9.469118e20
0.0002834343,9.708806e20
0.0002860596,9.95495e20
0.0002887091,1.020773e21
0.0002913832,1.046735e21
0.00029408200000000003,1.073398e21
0.0002968059,1.100785e21
0.00029955490000000003,1.128914e21
0.0003023295,1.157809e21
0.00030512970000000003,1.18749e21
0.00030795590000000004,1.217981e21
0.0003108082,1.249304e21
0.000313687,1.281484e21
0.0003165924,1.314545e21
0.0003195248,1.348514e21
0.0003224842,1.383416e21
0.00032547120000000004,1.419279e21
0.0003284857,1.456131e21
0.0003315282,1.493999e21
0.0003345989,1.532915e21
0.000337698,1.572908e21
0.00034082590000000004,1.614011e21
0.00034398260000000004,1.656255e21
0.0003471687,1.699674e21
0.0003503842,1.744304e21
0.0003536296,1.790178e21
0.00035690490000000005,1.837334e21
0.0003602107,1.88581e21
0.00036354700000000003,1.935645e21
0.00036691420000000005,1.986879e21
0.0003703127,2.039554e21
0.0003737426,2.093711e21
0.0003772042,2.149396e21
0.000380698,2.206654e21
0.00038422410000000005,2.265531e21
0.0003877828,2.326076e21
0.00039137460000000004,2.388338e21
0.0003949995,2.45237e21
0.0003986581,2.518223e21
0.00040235060000000004,2.585953e21
0.00040607720000000004,2.655617e21
0.0004098384,2.727271e21
0.00041363440000000005,2.800976e21
0.0004174655,2.876794e21
0.0004213322,2.954788e21
0.0004252346,3.035025e21
0.0004291732,3.117572e21
0.0004331483,3.2025e21
0.0004371602,3.289879e21
0.0004412093,3.379786e21
0.00044529590000000005,3.472297e21
0.0004494203,3.56749e21
0.00045358290000000004,3.665449e21
0.0004577841,3.766257e21
0.0004620241,3.870001e21
0.0004663035,3.976771e21
0.00047062250000000003,4.086661e21
0.00047498150000000003,4.199765e21
0.0004793808,4.316183e21
0.000483821,4.436017e21
0.0004883022,4.559371e21
0.000492825,4.686354e21
0.0004973896,4.817079e21
0.0005019965,4.95166e21
0.0005066461,5.090218e21
0.0005113388,5.232876e21
0.0005160749,5.37976e21
0.0005208549,5.531002e21
0.0005256791,5.686738e21
0.0005305481,5.847107e21
0.0005354621,2.475187e-8
0.0005404216,2.138877e-8
0.0005454271000000001,1.84834e-8
0.0005504790000000001,1.605795e-8
0.0005555776,1.396474e-8
0.0005607235,1.216092e-8
0.000565917,1.061131e-8
0.0005711586,9.259562e-9
0.0005764488,8.113891e-9
0.000581788,7.111563e-9
0.0005871766000000001,6.264063e-9
0.0005926152000000001,5.54883e-9
0.0005981041,4.91547e-9
0.0006036439,4.36508e-9
0.0006092349,3.880102e-9
0.0006148778000000001,3.449152e-9
0.0006205729,3.124029e-9
0.0006263207,2.837902e-9
0.0006321218,2.578089e-9
0.0006379767,2.355761e-9
0.0006438857,2.161443e-9
0.0006498494999999999,1.983237e-9
0.0006558686000000001,1.820558e-9
0.0006619433,1.682229e-9
0.0006680744,1.554476e-9
0.0006742622000000001,1.436484e-9
0.0006805074,1.327068e-9
0.0006868104000000001,1.222528e-9
0.0006931716999999999,1.126271e-9
0.000699592,1.037635e-9
0.0007060718,9.587879e-10
0.0007126115,8.932308e-10
0.0007192119000000001,8.321905e-10
0.0007258734000000001,7.753536e-10
0.0007325965,7.224282e-10
0.000739382,6.731433e-10
0.0007462303000000001,6.272464e-10
0.000753142,5.845028e-10
0.0007601178,5.458139e-10
0.0007671581,5.104645e-10
0.0007742637,4.774241e-10
0.0007814351000000001,4.465404e-10
0.0007886729,4.193139e-10
0.0007959777,3.943089e-10
0.0008033502,3.708099e-10
0.000810791,3.487256e-10
0.0008183007,3.287527e-10
0.0008258799,3.100198e-10
0.0008335294,2.923661e-10
0.0008412497,2.75827e-10
0.0008490415,2.617574e-10
0.0008569055,2.484153e-10
0.0008648423,2.357627e-10
0.0008728527,2.239565e-10
0.0008809372,2.134146e-10
0.0008890966,2.033769e-10
0.0008973316,1.93819e-10
0.0009056428,1.84994e-10
0.0009140311,1.770173e-10
0.000922497,1.693911e-10
0.0009310413,1.620998e-10
0.0009396647999999999,1.554223e-10
0.0009483682000000001,1.492711e-10
0.0009571522,1.43369e-10
0.0009660175,1.377056e-10
0.0009749649,1.325555e-10
0.0009839952,1.277239e-10
0.0009931092000000001,1.230731e-10
0.001002308,1.185962e-10
0.0010115909999999998,1.147186e-10
0.0010209610000000001,1.110442e-10
0.0010304169999999998,1.074915e-10
0.0010399609999999998,1.040637e-10
0.001049593,1.01323e-10
0.0010593150000000001,9.865818e-11
0.001069126,9.606701e-11
0.001079029,9.355446e-11
0.0010890230000000002,9.114441e-11
0.0010991100000000001,8.879974e-11
0.0011092900000000002,8.651856e-11
0.001119564,8.438538e-11
0.001129934,8.247866e-11
0.0011404000000000002,8.061795e-11
0.0011509620000000002,7.880209e-11
0.001161623,7.702991e-11
0.001172382,7.53003e-11
0.001183241,7.361218e-11
0.0011941999999999999,7.196448e-11
0.001205261,7.027546e-11
0.001216424,6.858586e-11
0.0012276910000000002,6.535093e-11
0.0012390620000000002,6.08004e-11
0.0012505390000000002,5.656872e-11
0.0012621210000000002,5.26334e-11
0.0012738110000000001,4.897356e-11
0.00128561,4.556979e-11
0.001297517,4.240405e-11
0.001309535,3.94596e-11
0.001321664,3.621781e-11
0.0013339060000000002,3.309699e-11
0.0013462609999999999,3.024612e-11
0.00135873,2.773007e-11
0.0013713150000000001,2.553887e-11
0.0013840159999999998,2.352161e-11
0.0013968350000000001,2.173227e-11
0.001409773,2.016509e-11
0.0014228300000000001,1.871155e-11
0.001436009,1.747465e-11
0.00144931,1.637294e-11
0.0014627330000000001,1.534118e-11
0.001476281,1.426705e-11
0.001489955,1.324177e-11
0.001503755,1.229057e-11
0.001517683,1.140448e-11
0.0015317400000000002,1.057611e-11
0.001545928,9.808221e-12
0.0015602460000000002,9.092874e-12
0.001574698,8.394893e-12
0.001589283,7.750733e-12
0.0016040030000000001,7.160882e-12
0.00161886,6.629628e-12
0.001633854,6.137977e-12
0.001648987,5.78545e-12
0.00166426,5.541979e-12
0.001679675,5.308917e-12
0.001695232,5.085811e-12
0.001710934,4.889137e-12
0.001726781,4.702896e-12
0.001742775,4.523885e-12
0.001758917,4.351818e-12
0.001775208,4.155767e-12
0.00179165,3.934791e-12
0.0018082450000000002,3.725674e-12
0.0018249930000000002,3.527774e-12
0.001841897,3.352708e-12
0.001858957,3.186663e-12
0.0018761749999999999,3.028929e-12
0.001893552,2.87851e-12
0.0019110910000000002,2.735154e-12
0.0019287920000000001,2.59901e-12
0.001946656,2.469786e-12
0.001964687,2.347868e-12
0.0019828840000000003,2.232031e-12
0.0020012500000000004,2.121967e-12
0.002019786,2.022168e-12
0.0020384929999999997,1.929819e-12
0.002057374,1.841738e-12
0.00207643,1.757607e-12
0.002095662,1.676845e-12
0.0021150730000000003,1.599836e-12
0.002134663,1.526404e-12
0.002154435,1.459578e-12
0.002174389,1.396864e-12
0.002194529,1.33688e-12
0.002214855,1.278305e-12
0.00223537,1.219332e-12
0.002256074,1.163109e-12
0.00227697,1.109507e-12
0.00229806,1.064257e-12
0.0023193450000000004,1.022066e-12
0.002340827,9.815721e-13
0.002362508,9.421519e-13
0.0023843899999999997,8.874401e-13
0.002406475,8.359262e-13
0.0024287640000000004,7.874218e-13
0.0024512600000000002,7.605424e-13
0.002473964,7.360954e-13
0.002496878,7.124513e-13
0.002520005,6.895833e-13
0.002543346,6.628753e-13
0.002566903,6.327744e-13
0.002590678,6.040547e-13
0.0026146729999999997,5.773806e-13
0.002638891,5.567301e-13
0.0026633330000000004,5.368306e-13
0.0026880009999999998,5.176543e-13
0.002712898,4.991744e-13
0.002738025,4.813651e-13
0.002763385,4.675884e-13
0.00278898,4.552408e-13
0.002814812,4.432291e-13
0.002840884,4.315438e-13
0.002867196,4.201759e-13
0.0028937529999999998,4.091163e-13
0.002920556,3.983565e-13
0.002947606,3.876157e-13
0.002974908,3.771533e-13
0.003002462,3.669811e-13
0.003030271,3.570908e-13
0.003058338,3.474744e-13
0.003086665,3.387427e-13
0.0031152540000000005,3.304543e-13
0.003144108,3.223753e-13
0.0031732300000000004,3.145002e-13
0.003202621,3.068238e-13
0.003232284,2.996013e-13
0.003262222,2.925815e-13
0.003292437,2.857318e-13
0.003322933,2.79048e-13
0.00335371,2.726763e-13
0.003384773,2.682942e-13
0.003416123,2.639877e-13
0.003447764,2.597553e-13
0.003479698,2.555956e-13
0.003511928,2.516391e-13
0.003544456,2.523252e-13
0.003577285,2.53018e-13
0.0036104189999999997,2.537174e-13
0.003643859,2.544234e-13
0.003677609,2.55136e-13
0.003711672,2.558553e-13
0.00374605,2.565813e-13
0.003780747,2.570844e-13
0.003815765,2.575044e-13
0.003851107,2.579297e-13
0.003886777,2.583602e-13
0.003922777,2.58796e-13
0.00395911,2.59237e-13
0.00399578,2.596833e-13
0.0040327900000000005,2.600426e-13
0.004070142,2.603118e-13
0.004107841,2.605857e-13
0.004145888,2.608642e-13
0.004184289,2.611474e-13
0.004223044,2.614352e-13
0.004262159,2.617275e-13
0.004301636,2.620245e-13
0.004341478,2.627725e-13
0.00438169,2.654499e-13
0.0044222739999999995,2.681589e-13
0.004463234,2.708997e-13
0.0045045729999999996,2.736729e-13
0.004546295,2.764787e-13
0.004588404,2.793177e-13
0.0046309030000000004,2.821901e-13
0.0046737950000000006,2.850964e-13
0.004717085,2.880369e-13
0.004760775,2.910122e-13
0.00480487,2.940226e-13
0.004849374,2.971799e-13
0.00489429,3.004154e-13
0.004939622,3.036906e-13
0.004985373,3.07006e-13
0.005031549,3.10362e-13
0.005078152000000001,3.137591e-13
0.005125187000000001,3.17198e-13
0.005172657,3.207596e-13
0.005220568,3.248403e-13
0.005268921,3.289775e-13
0.005317723,3.331719e-13
0.005366977,3.374244e-13
0.005416687,3.417357e-13
0.005466857,3.461068e-13
0.005517492,3.505385e-13
0.005568596,3.56047e-13
0.0056201739999999995,3.624738e-13
0.005672229,3.690214e-13
0.005724766,3.756921e-13
0.0057777900000000005,3.824883e-13
0.005831305,3.894124e-13
0.005885316000000001,3.964668e-13
0.005939827,4.036541e-13
0.005994843000000001,4.113473e-13
0.0060503679999999995,4.192063e-13
0.006106408,4.272206e-13
0.006162966,4.353934e-13
0.006220049000000001,4.437279e-13
0.00627766,4.522273e-13
0.006335805,4.60895e-13
0.006394488,4.697071e-13
0.006453715,4.786464e-13
0.006513491000000001,4.877615e-13
0.00657382,4.970559e-13
0.006634708,5.065332e-13
0.00669616,5.16197e-13
0.006758181,5.260511e-13
0.006820777,5.360992e-13
0.006883952,5.473445e-13
0.006947713,5.591164e-13
0.007012064,5.711477e-13
0.007077011,5.834442e-13
0.007142559000000001,5.960118e-13
0.007208715,6.088565e-13
0.007275484,6.219846e-13
0.00734287,6.359503e-13
0.007410882,6.526174e-13
0.007479523000000001,6.697281e-13
0.007548799,6.872945e-13
0.007618718000000001,7.053288e-13
0.007689284,7.238435e-13
0.007760503,7.428516e-13
0.007832383,7.623664e-13
0.007904928,7.824015e-13
0.007978144999999999,8.029708e-13
0.00805204,8.240889e-13
0.008126619,8.457705e-13
0.008201889,8.680307e-13
0.008277857,8.908851e-13
0.008354528,9.143498e-13
0.008431909,9.384485e-13
0.008510007,9.640843e-13
0.008588829000000001,9.904293e-13
0.008668380000000002,1.017503e-12
0.008748668000000001,1.045327e-12
0.008829700000000001,1.073921e-12
0.008911482,1.103307e-12
0.008994021999999999,1.133506e-12
0.009077327000000001,1.166436e-12
0.009161402,1.20306e-12
0.009246257,1.240845e-12
0.009331898000000002,1.279827e-12
0.009418332,1.320045e-12
0.009505566,1.361538e-12
0.009593608,1.404346e-12
0.009682466,1.448513e-12
0.009772147,1.49408e-12
0.009862658,1.541094e-12
0.009954008,1.589599e-12
0.010046200000000002,1.639644e-12
0.01013925,1.691278e-12
0.01023317,1.744551e-12
0.010327949999999999,1.799517e-12
0.01042361,1.856499e-12
0.010520149999999999,1.916214e-12
0.01061759,1.977865e-12
0.01071593,2.041515e-12
0.010815189999999999,2.107228e-12
0.01091536,2.175072e-12
0.01101646,2.245117e-12
0.0111185,2.317435e-12
0.01122148,2.392099e-12
0.01132541,2.469186e-12
0.01143031,2.548775e-12
0.01153618,2.630947e-12
0.01164303,2.715788e-12
0.011750870000000002,2.803384e-12
0.01185971,2.893825e-12
0.01196956,2.987447e-12
0.01208042,3.088675e-12
0.012192310000000001,3.193353e-12
0.01230524,3.301601e-12
0.01241921,3.413541e-12
0.01253424,3.529299e-12
0.01265034,3.649005e-12
0.01276751,3.772796e-12
0.01288576,3.902212e-12
0.01300511,4.037787e-12
0.01312557,4.178097e-12
0.013247140000000001,4.32331e-12
0.013369840000000001,4.473597e-12
0.01349367,4.629137e-12
0.013618650000000001,4.790112e-12
0.01374479,4.956715e-12
0.0138721,5.128448e-12
0.01400058,5.306054e-12
0.01413026,5.489843e-12
0.01426114,5.68003e-12
0.014393230000000002,5.876839e-12
0.014526540000000001,6.080501e-12
0.01466109,6.291257e-12
0.01479688,6.513313e-12
0.01493393,6.753856e-12
0.01507225,7.003321e-12
0.01521186,7.26204e-12
0.01535275,7.530357e-12
0.01549495,7.808628e-12
0.01563847,8.097226e-12
0.015783310000000002,8.396533e-12
0.015929500000000003,8.706949e-12
0.01607704,9.028887e-12
0.016225950000000003,9.362776e-12
0.01637624,9.709062e-12
0.01652792,1.00682e-11
0.01668101,1.044068e-11
0.016835509999999998,1.0827e-11
0.01699144,1.122766e-11
0.017148820000000002,1.16432e-11
0.01730766,1.207418e-11
0.01746796,1.252118e-11
0.017629750000000003,1.298478e-11
0.017793040000000003,1.346561e-11
0.01795785,1.396431e-11
0.01812418,1.448155e-11
0.01829205,1.502865e-11
0.018461469999999997,1.560731e-11
0.01863246,1.620833e-11
0.018805040000000002,1.683256e-11
0.01897922,1.748092e-11
0.01915501,1.815432e-11
0.01933242,1.885375e-11
0.019511479999999998,1.958021e-11
0.0196922,2.036661e-11
0.019874600000000003,2.118781e-11
0.02005868,2.204221e-11
0.02024447,2.293116e-11
0.02043197,2.385606e-11
0.020621220000000003,2.481837e-11
0.02081222,2.581959e-11
0.02100498,2.686942e-11
0.02119953,2.797975e-11
0.02139589,2.913607e-11
0.021594059999999998,3.03403e-11
0.021794070000000002,3.159442e-11
0.02199593,3.290051e-11
0.022199660000000003,3.426072e-11
0.022405280000000003,3.56773e-11
0.0226128,3.708068e-11
0.02282224,3.851203e-11
0.02303363,3.999877e-11
0.023246970000000002,4.154306e-11
0.02346229,4.314712e-11
0.023679600000000002,4.481328e-11
0.02389893,4.654394e-11
0.02412028,4.83469e-11
0.024343689999999998,5.02535e-11
0.02456916,5.223547e-11
0.02479673,5.429578e-11
0.0250264,5.643756e-11
0.025258199999999998,5.866401e-11
0.025492149999999998,6.097851e-11
0.02572826,6.338452e-11
0.025966560000000003,6.589908e-11
0.026207070000000002,6.852506e-11
0.0264498,7.125591e-11
0.02669478,7.409582e-11
0.02694204,7.704916e-11
0.02719158,8.012046e-11
0.02744343,8.331445e-11
0.027697620000000003,8.663602e-11
0.027954160000000002,9.013392e-11
0.02821308,9.377532e-11
0.02847439,9.756412e-11
0.02873813,1.015063e-10
0.0290043,1.056081e-10
0.029272950000000002,1.098759e-10
0.02954408,1.143166e-10
0.029817720000000002,1.189941e-10
0.030093900000000003,1.239659e-10
0.030372640000000003,1.291458e-10
0.03065395,1.345425e-10
0.03093788,1.401651e-10
0.03122443,1.460231e-10
0.03151363,1.521264e-10
0.031805520000000004,1.584851e-10
0.03210011,1.651101e-10
0.03239743,1.720125e-10
0.0326975,1.792039e-10
0.03300035,1.866964e-10
0.033305999999999995,1.945027e-10
0.033614490000000004,2.026731e-10
0.03392583,2.114384e-10
0.03424006,2.205834e-10
0.0345572,2.301245e-10
0.03487727,2.400788e-10
0.035200310000000005,2.504644e-10
0.03552635,2.612998e-10
0.0358554,2.726046e-10
0.0361875,2.843992e-10
0.03652267,2.967048e-10
0.03686095,3.095436e-10
0.037202370000000005,3.229386e-10
0.03754694,3.369141e-10
0.037894710000000005,3.514951e-10
0.0382457,3.66708e-10
0.03859994,3.825802e-10
0.03895746,3.991403e-10
0.03931829,4.16418e-10
0.03968246,4.344446e-10
0.040050010000000004,4.532526e-10
0.04042096,4.728758e-10
0.04079535,4.933495e-10
0.0411732,5.151748e-10
0.04155455,5.380831e-10
0.04193944,5.620112e-10
0.04232789,5.870046e-10
0.042719940000000005,6.131107e-10
0.04311562,6.403791e-10
0.04351497,6.688616e-10
0.04391801,6.986123e-10
0.04432479,7.296877e-10
0.04473533,7.621469e-10
0.04514968,7.960514e-10
0.04556786,8.314658e-10
0.04598992,8.684573e-10
0.04641589,9.070963e-10
0.0468458,9.47456e-10
0.0472797,9.896133e-10
0.04771761,1.033648e-9
0.04815958,1.079645e-9
0.048605640000000006,1.12769e-9
0.04905584,1.177875e-9
0.0495102,1.230296e-9
0.04996877,1.285051e-9
0.05043159,1.342246e-9
0.0508987,1.40199e-9
0.05137014,1.464394e-9
0.05184594,1.529579e-9
0.05232614,1.597669e-9
0.052810800000000005,1.668792e-9
0.053299940000000004,1.743083e-9
0.05379362,1.820686e-9
0.054291860000000004,1.901141e-9
0.05479472,1.982718e-9
0.055302239999999996,2.0678e-9
0.055814459999999996,2.156535e-9
0.05633143,2.249082e-9
0.05685318,2.345604e-9
0.05737976,2.446273e-9
0.05791123000000001,2.551265e-9
0.05844761,2.660767e-9
0.05898896,2.774974e-9
0.059535330000000004,2.894087e-9
0.060086759999999996,3.018316e-9
0.06064329,3.147883e-9
0.06120498,3.283017e-9
0.06177188,3.423956e-9
0.06234402,3.570951e-9
0.06292146,3.724261e-9
0.06350425,3.884159e-9
0.06409244,4.050927e-9
0.06468608,4.221411e-9
0.06528521000000001,4.398507e-9
0.0658899,4.583038e-9
0.06650018,4.775318e-9
0.06711612,4.975671e-9
0.06773776,5.184436e-9
0.06836516000000001,5.401968e-9
0.06899836999999999,5.636519e-9
0.06963745,5.9033e-9
0.07028244,6.182716e-9
0.07093341,6.475364e-9
0.07159041000000001,6.781873e-9
0.07225349,7.1029e-9
0.07292272,7.43913e-9
0.07359814,7.791287e-9
0.07427982,8.140234e-9
0.07496782,8.495111e-9
0.07566218999999999,8.865468e-9
0.07636298,9.251982e-9
0.07707027,9.655359e-9
0.07778411,1.007633e-8
0.07850456,1.051567e-8
0.07923169000000001,1.097618e-8
0.07996555,1.1478e-8
0.08070619999999999,1.200277e-8
0.08145372000000001,1.255155e-8
0.08220816,1.312544e-8
0.08296959,1.372557e-8
0.08373807,1.435317e-8
0.08451366,1.500947e-8
0.08529644,1.56958e-8
0.08608647999999999,1.641353e-8
0.08688383000000001,1.71641e-8
0.08768856,1.794901e-8
0.08850075,1.876983e-8
0.08932046,1.96282e-8
0.09014776000000001,2.052585e-8
0.09098273000000001,2.146457e-8
0.09182543,2.24526e-8
0.09267592999999999,2.348679e-8
0.09353431999999999,2.456865e-8
0.09440065,2.570037e-8
0.09527500000000001,2.688424e-8
0.09615746,2.812267e-8
0.09704809,2.941817e-8
0.09794697,3.077793e-8
0.09885417,3.221086e-8
0.09976978,3.371053e-8
0.1006939,3.528005e-8
0.1016265,3.692268e-8
0.1025678,3.864182e-8
0.1035178,4.044104e-8
0.1044766,4.232407e-8
0.1054443,4.42648e-8
0.1064209,4.628267e-8
0.1074066,4.839257e-8
0.1084014,5.05987e-8
0.1094055,5.290543e-8
0.11041880000000001,5.531738e-8
0.11144150000000001,5.783933e-8
0.1124737,6.048892e-8
0.1135155,6.334533e-8
0.11456690000000001,6.633668e-8
0.11562800000000001,6.946934e-8
0.116699,7.274999e-8
0.1177799,7.618562e-8
0.1188708,7.978356e-8
0.1199718,8.355148e-8
0.121083,8.738652e-8
0.1222045,9.130006e-8
0.1233363,9.538894e-8
0.12447870000000001,9.9661e-8
0.12563169999999999,1.041245e-7
0.1267953,1.087879e-7
0.12796970000000002,1.136603e-7
0.129155,1.18751e-7
0.1303512,1.244565e-7
0.13155860000000003,1.30457e-7
0.13277709999999998,1.367468e-7
0.1340069,1.4334e-7
0.1352481,1.502511e-7
0.1365008,1.574956e-7
0.1377651,1.650895e-7
0.1390411,1.728264e-7
0.1403289,1.805118e-7
0.14162870000000002,1.885392e-7
0.1429405,1.969236e-7
0.1442644,2.05681e-7
0.1456006,2.14828e-7
0.1469492,2.243819e-7
0.1483103,2.343609e-7
0.1496839,2.454592e-7
0.15107030000000002,2.572959e-7
0.1524696,2.697036e-7
0.1538818,2.827098e-7
0.1553071,2.963433e-7
0.1567455,3.106345e-7
0.1581973,3.256151e-7
0.1596626,3.411291e-7
0.16114140000000002,3.564685e-7
0.162634,3.724978e-7
0.1641403,3.892482e-7
0.1656606,4.067519e-7
0.167195,4.25043e-7
0.1687436,4.441569e-7
0.1703065,4.641305e-7
0.1718839,4.857567e-7
0.1734759,5.089474e-7
0.17508269999999998,5.332456e-7
0.17670439999999998,5.587041e-7
0.178341,5.853784e-7
0.17999289999999998,6.133264e-7
0.18166,6.426091e-7
0.1833425,6.732902e-7
0.1850407,7.04125e-7
0.18675460000000002,7.363662e-7
0.1884843,7.70084e-7
0.19023009999999999,8.053461e-7
0.1919921,8.422232e-7
0.1937703,8.807894e-7
0.1955651,9.211219e-7
0.1973764,9.636658e-7
0.1992046,1.008737e-6
0.2010496,1.055916e-6
0.2029118,1.105302e-6
0.2047912,1.156999e-6
0.20668799999999998,1.211114e-6
0.2086024,1.26776e-6
0.2105345,1.327057e-6
0.2124845,1.388952e-6
0.2144526,1.453692e-6
0.2164389,1.52145e-6
0.21844360000000002,1.592366e-6
0.22046690000000002,1.66659e-6
0.2225089,1.744273e-6
0.22456979999999999,1.825578e-6
0.2266498,1.910542e-6
0.2287491,1.998976e-6
0.23086779999999998,2.091505e-6
0.23300610000000002,2.188317e-6
0.2351643,2.289611e-6
0.2373424,2.395595e-6
0.2395407,2.506485e-6
0.2417594,2.62251e-6
0.2439986,2.745794e-6
0.2462586,2.876033e-6
0.2485395,3.012449e-6
0.2508415,3.155338e-6
0.2531648,3.305005e-6
0.2555097,3.461773e-6
0.2578763,3.625978e-6
0.26026479999999996,3.797716e-6
0.2626754,3.971049e-6
0.2651084,4.152294e-6
0.2675638,4.341813e-6
0.2700421,4.539984e-6
0.2725433,4.747201e-6
0.2750676,4.963878e-6
0.2776153,5.190446e-6
0.28018669999999996,5.432666e-6
0.28278179999999997,5.693036e-6
0.285401,5.965886e-6
0.2880444,6.251815e-6
0.29071230000000003,6.55145e-6
0.29340499999999997,6.865448e-6
0.2961225,7.194497e-6
0.2988653,7.539319e-6
0.3016334,7.884864e-6
0.3044272,8.243496e-6
0.3072469,8.618443e-6
0.3100927,9.010446e-6
0.31296480000000004,9.420282e-6
0.3158635,9.848761e-6
0.31878910000000005,0.00001029673
0.3217418,0.00001077088
0.3247218,0.00001128363
0.3277295,0.00001182079
0.330765,0.00001238352
0.3338286,0.00001297305
0.33692059999999996,0.00001359064
0.3400412,0.00001423764
0.3431907,0.00001491544
0.3463694,0.0000156091
0.34957760000000004,0.00001632676
0.3528154,0.00001707741
0.3560833,0.00001786257
0.3593814,0.00001868385
0.36271,0.00001954288
0.3660695,0.00002044142
0.3694601,0.00002138406
0.3728821,0.00002240213
0.3763358,0.00002346867
0.37982150000000003,0.00002458599
0.3833395,0.00002575652
0.3868901,0.00002698278
0.39047350000000003,0.00002826743
0.3940902,0.00002961325
0.3977403,0.00003099699
0.4014242,0.00003241718
0.4051423,0.00003390246
0.4088948,0.00003545579
0.4126821,0.0000370803
0.4165044,0.00003877925
0.42036219999999996,0.00004055605
0.4242556,0.00004241427
0.42818520000000004,0.0000444137
0.4321511,0.00004651386
0.4361538,0.00004871332
0.44019349999999996,0.00005101681
0.44427069999999996,0.00005342922
0.4483856,0.00005595573
0.45253859999999996,0.00005860171
0.4567301,0.00006135506
0.4609604,0.00006419636
0.46523000000000003,0.00006716925
0.469539,0.00007027984
0.473888,0.00007353448
0.4782772,0.00007693986
0.48270710000000006,0.00008050296
0.487178,0.00008423108
0.4916904,0.00008816147
0.49624450000000003,0.00009228741
0.5008408,0.00009660645
0.5054797,0.0001011277
0.5101615,0.0001058605
0.5148867,0.0001108148
0.5196557,0.000116001
0.5244689,0.0001214275
0.5293266,0.0001270907
0.5342293,0.0001330179
0.5391775,0.0001392217
0.5441714,0.0001457147
0.5492116,0.0001525107
0.5542986,0.0001596236
0.5594326,0.0001670683
0.5646141,0.0001748164
0.5698437000000001,0.0001828842
0.5751217000000001,0.0001913244
0.5804486000000001,0.0002001542
0.5858248,0.0002093914
0.5912508000000001,0.0002190551
0.5967271,0.0002291647
0.6022541,0.0002397409
0.6078323,0.0002512488
0.6134622000000001,0.0002633361
0.6191441999999999,0.0002760049
0.6248788,0.0002892832
0.6306666000000001,0.0003032005
0.6365079,0.0003177872
0.6424034000000001,0.0003330758
0.6483534,0.0003487922
0.6543586,0.0003646626
0.6604194,0.0003812552
0.6665363,0.0003986028
0.6727099,0.0004167397
0.6789407,0.000435702
0.6852292,0.0004555272
0.6915759,0.0004762545
0.6979814,0.0004992281
0.7044462,0.0005237357
0.7109709000000001,0.0005494464
0.7175561,0.0005764194
0.7242022,0.0006047165
0.7309099,0.0006344029
0.7376798,0.0006655467
0.7445123,0.0006977533
0.7514081,0.0007291624
0.7583678,0.0007619853
0.7653919,0.0007962859
0.7724811,0.0008321306
0.779636,0.0008695889
0.7868572,0.0009087335
0.7941452000000001,0.0009496403
0.8015007000000001,0.000994454
0.8089243,0.00104295
0.8164167999999999,0.00109381
0.8239786,0.001147151
0.8316104000000001,0.001203093
0.8393129,0.001261764
0.8470868,0.001323296
0.8549327,0.001387828
0.8628513000000001,0.001452372
0.8708431000000001,0.001519882
0.8789091,0.001590529
0.8870497,0.001664461
0.8952657,0.00174183
0.9035578000000001,0.001822795
0.9119267999999999,0.001907523
0.9203732,0.001996099
0.9288979,0.002088643
0.9375015,0.002185478
0.9461848,0.002286803
0.9549486,0.002392826
0.9637935,0.002503764
0.9727203,0.002619847
0.9817298,0.002741311
0.9908228,0.002868407
1.,0.003001396
